  Frame    r_f (m) (Cam 1)    v_f (m/s) (Cam 1)    r_p (m) (Cam 1)    v_p (m/s) (Cam 1)    r_f (m) (Cam 2)    v_f (m/s) (Cam 2)    r_p (m) (Cam 2)    v_p (m/s) (Cam 2)
      0          0.0622944          0.146434             0.0621156          0                    0.0619845            0.214994           0.061625           0
      1          0.0629045          0.246471             0.0621156          0                    0.0628803            0.328445           0.061625           0.00573751
      2          0.0643483          0.376251             0.0621156          0.0206878            0.0647215            0.457864           0.0616728          0.0566714
      3          0.0660399          0.413485             0.0622879          0.196326             0.0666958            0.476971           0.0620973          0.223655
      4          0.067794           0.450703             0.0637516          0.435301             0.0686963            0.471721           0.0635366          0.385983
      5          0.0697958          0.498372             0.0659155          0.568932             0.0706268            0.464522           0.0653138          0.443683
      6          0.0719471          0.53406              0.0684927          0.60472              0.0725673            0.475293           0.067234           0.495645
      7          0.0742463          0.576095             0.0709548          0.616971             0.0745876            0.49007            0.0694442          0.539001
      8          0.0767479          0.621472             0.0736341          0.678338             0.0766512            0.502032           0.0717256          0.575158
      9          0.0794252          0.667455             0.0766076          0.724712             0.0787712            0.533588           0.0742371          0.602763
     10          0.08231            0.711719             0.0796734          0.771983             0.0810978            0.560219           0.0767487          0.61348
     11          0.0853562          0.767015             0.0830408          0.844423             0.0834397            0.574076           0.0793495          0.634211
     12          0.0887018          0.815205             0.0867102          0.877276             0.0858818            0.613643           0.0820338          0.672642
     13          0.0921496          0.844459             0.0903514          0.89887              0.0885534            0.662358           0.0849548          0.703657
     14          0.095739           0.884104             0.0942008          0.934372             0.0914014            0.683576           0.0878976          0.71616
     15          0.0995171          0.911163             0.0981379          0.942681             0.0942499            0.698731           0.0909228          0.740788
     16          0.103332           0.90919              0.102056           0.931658             0.0972242            0.733806           0.0940708          0.780788
     17          0.107094           0.908148             0.105902           0.927667             0.100365             0.759083           0.0974294          0.798055
     18          0.1109             0.904071             0.109787           0.917904             0.10355              0.77819            0.100721           0.81045
     19          0.114628           0.894353             0.113551           0.903826             0.10685              0.799138           0.104183           0.844713
     20          0.118353           0.868786             0.117319           0.876803             0.110209             0.800816           0.107761           0.864902
     21          0.121868           0.85301              0.120858           0.855938             0.113523             0.810017           0.111391           0.875999
     22          0.125461           0.834187             0.124452           0.838432             0.116959             0.830802           0.115061           0.877027
     23          0.128819           0.786303             0.127845           0.78808              0.120447             0.842385           0.118699           0.863387
     24          0.132014           0.752768             0.131019           0.75357              0.123979             0.831181           0.122255           0.837622
     25          0.135092           0.722477             0.134124           0.727796             0.127373             0.803305           0.125679           0.818624
     26          0.138034           0.695081             0.137084           0.696239             0.130674             0.787392           0.129077           0.826959
     27          0.140884           0.658176             0.139926           0.655164             0.133935             0.768177           0.132571           0.801357
     28          0.143519           0.60239              0.142544           0.60197              0.137075             0.751289           0.135755           0.766174
     29          0.145904           0.562129             0.144943           0.565829             0.140196             0.734564           0.138956           0.75957
     30          0.148204           0.532808             0.147259           0.528421             0.143196             0.720599           0.142085           0.743116
     31          0.150344           0.473647             0.149346           0.468493             0.1462               0.712858           0.145148           0.714266
     32          0.152151           0.416943             0.151163           0.421501             0.149137             0.68639            0.148037           0.6839
     33          0.153819           0.376606             0.152859           0.381814             0.15192              0.660409           0.150847           0.665172
     34          0.155289           0.338322             0.154345           0.335904             0.15464              0.639029           0.15358            0.643738
     35          0.156638           0.307546             0.155658           0.301137             0.157246             0.601735           0.156212           0.606931
     36          0.157852           0.268213             0.156854           0.267987             0.159655             0.578027           0.158638           0.58095
     37          0.158873           0.224827             0.157891           0.226975             0.162063             0.552749           0.161053           0.552425
     38          0.159726           0.190933             0.158746           0.189153             0.164261             0.519245           0.163242           0.524387
     39          0.160465           0.164327             0.159467           0.162219             0.16639              0.492343           0.165423           0.496186
     40          0.161095           0.132863             0.160098           0.135495             0.168364             0.465225           0.167377           0.467228
     41          0.161572           0.110255             0.160597           0.121421             0.170266             0.44417            0.169317           0.445956
     42          0.162014           0.0976693            0.16111            0.100992             0.172065             0.405469           0.171093           0.403953
     43          0.162386           0.0751142            0.161438           0.0763754            0.173645             0.368391           0.172683           0.370394
     44          0.16264            0.0541361            0.161746           0.0531036            0.175135             0.340949           0.174179           0.338351
     45          0.162837           0.0582981            0.161881           0.0545404            0.176487             0.307552           0.175502           0.309934
     46          0.163125           0.0565902            0.1622             0.063264             0.177698             0.286388           0.176762           0.284223
     47          0.163308           0.0414797            0.162408           0.043483             0.178873             0.266848           0.177871           0.259379
     48          0.163471           0.0357242            0.162563           0.0401655            0.179922             0.234101           0.178924           0.233181
     49          0.163606           0.0278932            0.162743           0.0226289            0.180824             0.207092           0.179814           0.207362
     50          0.163704           0.0226463            0.162751           0.0207552            0.181648             0.1836             0.180652           0.185495
     51          0.163795           0.0203376            0.162916           0.0335244            0.182354             0.156807           0.18136            0.154371
     52          0.163873           0.0230047            0.163031           0.0280673            0.182954             0.138783           0.181938           0.135048
     53          0.163986           0.0264566            0.163149           0.0153631            0.183511             0.120163           0.182485           0.121083
     54          0.164094           0.022627             0.163159           0.0167588            0.183956             0.0997569          0.182947           0.100028
     55          0.164175           0.0180344            0.163289           0.00854333           0.184342             0.0887149          0.183319           0.0833021
     56          0.164244           0.0229985            0.16323            0.00274274           0.184695             0.0784307          0.183641           0.073884
     57          0.164367           0.026882             0.163312           0.0258342            0.184995             0.0673345          0.183935           0.0677134
     58          0.164468           0.0298793            0.163445           0.0238202            0.185256             0.0541274          0.184206           0.0536403
     59          0.164616           0.0285984            0.16351            0.0153428            0.185446             0.0527743          0.184382           0.0458459
     60          0.164706           0.0238991            0.163573           0.0234184            0.185696             0.0525578          0.184588           0.0467661
     61          0.164815           0.0216697            0.163706           0.0220672            0.185884             0.0422735          0.184771           0.0388094
     62          0.164887           0.0191155            0.163757           0.021581             0.186048             0.0376186          0.184911           0.0340462
     63          0.164974           0.0257135            0.163885           0.016069             0.186198             0.0372397          0.185055           0.0359406
     64          0.165101           0.0201262            0.163891           0.00761744           0.186359             0.0330177          0.185211           0.0364278
     65          0.165142           0.0163507            0.163949           0.0245581            0.186473             0.0292829          0.185359           0.0268472
     66          0.165237           0.022618             0.164096           0.0137944            0.186603             0.0304196          0.185434           0.022517
     67          0.16533            0.0182651            0.164064           0.00215761           0.186727             0.0379975          0.185546           0.0251693
     68          0.165389           0.0185229            0.164114           0.0167546            0.186919             0.0298784          0.185644           0.0261977
     69          0.165485           0.0240956            0.164203           0.0158394            0.186976             0.0221381          0.185764           0.0196483
     70          0.16559            0.0190751            0.164246           0.0129412            0.187104             0.0330719          0.185808           0.0154263
     71          0.165644           0.0220616            0.164311           0.0278068            0.187251             0.0294453          0.185893           0.0204602
     72          0.165774           0.0259633            0.164477           0.0159721            0.187349             0.0208391          0.185978           0.0164547
     73          0.16586            0.017919             0.164444          -0.00389681           0.187425             0.0239243          0.18603            0.0088769
     74          0.165923           0.0233622            0.164445           0.0254495            0.187548             0.0296618          0.186052           0.0115291
     75          0.166055           0.0243737            0.164656           0.0131818            0.187672             0.0191611          0.186126           0.0218675
     76          0.166127           0.0232176            0.164555           0.00259787           0.187708             0.0180244          0.186235           0.0180244
     77          0.166248           0.0231695            0.164678           0.0257681            0.187822             0.0306903          0.186276           0.0121245
     78          0.16632            0.0240847            0.164769           0.00788983           0.187964             0.0287958          0.186336           0.0160217
     79          0.166449           0.0242292            0.164744          -0.00152134           0.188062             0.0251151          0.18641            0.019107
     80          0.166522           0.0195568            0.164757           0.008852             0.188173             0.0249528          0.186495           0.0122328
     81          0.166612           0.0172446            0.164818           0.0141899            0.18827              0.0258729          0.186512           0.0158593
     82          0.166665           0.0161616            0.164875           0.00345734           0.188389             0.027605           0.186627           0.0310692
     83          0.166747           0.0243688            0.164846          -0.000337186          0.1885               0.0303655          0.186771           0.0224088
     84          0.166868           0.0229093            0.164872           0.00472115           0.188642             0.028471           0.186814           0.0240326
     85          0.166937           0.0188579            0.164886           0.00649729           0.188737             0.0274426          0.186971           0.0218675
     86          0.167025           0.0233433            0.164926           0.00702387           0.188871             0.0317187          0.186996           0.00903928
     87          0.167132           0.0231504            0.164944           0.00822659           0.189002             0.0310692          0.187046           0.0148309
     88          0.167218           0.0234398            0.164995           0.00346383           0.189129             0.0279298          0.187119           0.014452
     89          0.167327           0.024742             0.164973           0.0108726            0.189235             0.0263601          0.187167           0.0127741
     90          0.167425           0.0293239            0.165085           0.0253979            0.189349             0.0306361          0.187226           0.0179703
     91          0.167572           0.029811             0.165185           0.011205             0.18949              0.0338297          0.187317           0.0108796
     92          0.167673           0.0240866            0.165179           0.0058285            0.189631             0.0260353          0.187317           0.00844388
     93          0.167772           0.0253526            0.165233           0.0046592            0.189707             0.0237619          0.187387           0.0174832
     94          0.167884           0.0263667            0.165218           0.0185934            0.189829             0.0282545          0.187462           0.0206767
     95          0.167992           0.0246283            0.165388           0.0106105            0.189942             0.0298784          0.187559           0.0109337
     96          0.16809            0.0210065            0.165306           0.00525046           0.190078             0.0313398          0.187553           0.0182409
     97          0.168167           0.0219723            0.165432           0.00516074           0.190203             0.0337755          0.187711           0.0464955
     98          0.168273           0.0245317            0.165349          -0.00253702           0.190359             0.030582           0.187941           0.0168878
     99          0.168372           0.0239655            0.165411           0.000716413          0.190458             0.028471           0.187852          -0.00860626
    100          0.168472           0.0222398            0.165355          -0.00607699           0.190597             0.0278756          0.187869          -0.000541274
    101          0.168557           0.0221933            0.16536           -0.0057466            0.190691             0.0286334          0.187848           0.00232748
    102          0.168657           0.0221449            0.165307          -0.0107553            0.190835             0.0332343          0.187889           0.0172125
    103          0.168741           0.0217581            0.165271           0.00550514           0.190967             0.026739           0.187991           0.0049256
    104          0.168839           0.030635             0.165353           0.0491402            0.191058             0.0261977          0.18793            0.00736133
    105          0.168997           0.0306496            0.16568            0.00825771           0.191186             0.0372938          0.188052           0.0315563
    106          0.169094           0.0269655            0.165422          -0.0164671            0.191369             0.0355617          0.188193           0.00958056
    107          0.169221           0.0264814            0.165543          -0.00513659           0.191482             0.0218675          0.188132          -0.0214345
    108          0.169315           0.0231202            0.165379          -0.0228149            0.191551             0.0253858          0.188014           0.00357241
    109          0.169414           0.0222695            0.165353           0.00986368           0.191694             0.031015           0.188162           0.0245197
    110          0.1695             0.0286474            0.165461           0.0189517            0.19181              0.0251151          0.188218           0.00779435
    111          0.169653           0.0258281            0.165511           0.000918676          0.191903             0.0285793          0.188227          -0.00438432
    112          0.169715           0.0223459            0.165469           0.000482907          0.192048             0.0287958          0.188182          -0.0170501
    113          0.169839           0.0207948            0.165515           0.0128979            0.192143             0.0257647          0.188085           0.00530449
    114          0.169889           0.0170629            0.165576           0.0108817            0.192262             0.0274967          0.188226           0.0304738
    115          0.169981           0.0242048            0.165605           0.0176119            0.192372             0.0283087          0.188339           0.0211097
    116          0.17009            0.0258683            0.165723          -0.00918676           0.192498             0.0250069          0.188402          -0.00167795
    117          0.170197           0.025383             0.165529          -0.010996             0.19258              0.0264142          0.188325          -0.000378892
    118          0.170302           0.0216459            0.165632           0.010764             0.192719             0.0331801          0.188399           0.021218
