  Frame    r_f (m) (Cam 1)    v_f (m/s) (Cam 1)    r_p (m) (Cam 1)    v_p (m/s) (Cam 1)    r_f (m) (Cam 2)    v_f (m/s) (Cam 2)    r_p (m) (Cam 2)    v_p (m/s) (Cam 2)
      0          0.0619936            0.283763           0.061698            0                   0.0613759             0.370092          0.0611408            0
      1          0.063176             0.562374           0.061698            0                   0.062918              0.61606           0.0611408            0
      2          0.0666801            0.907261           0.061698            0.00200673          0.0665098             0.882372          0.0611408            0
      3          0.0707365            1.03406            0.0617148           0.367558            0.0702711             0.916713          0.0611408            0.0501268
      4          0.0752973            1.20898            0.064761            0.956995            0.074149              0.993205          0.0615586            0.262352
      5          0.0808113            1.39463            0.0696897           1.2522              0.0785478             1.09058           0.0633271            0.727055
      6          0.0869192            1.49974            0.075196            1.36989             0.0832372             1.13377           0.0676174            1.17809
      7          0.0933091            1.53005            0.0811055           1.57317             0.0879958             1.16284           0.0731445            1.38288
      8          0.0996696            1.56184            0.0883058           1.76647             0.0929276             1.18736           0.0791414            1.47624
      9          0.106324             1.62996            0.0958261           1.68121             0.0978905             1.27303           0.0854466            1.37078
     10          0.113253             1.65512            0.102316            1.68989             0.103536              1.39574           0.0905646            1.46209
     11          0.120117             1.61076            0.109908            1.63516             0.109522              1.47445           0.0976306            1.50869
     12          0.126676             1.56156            0.115942            1.65019             0.115823              1.49925           0.103137             1.44478
     13          0.13313              1.482              0.12366             1.59839             0.122015              1.484             0.10967              1.56153
     14          0.139026             1.3917             0.129262            1.4871              0.12819               1.46062           0.11615              1.56337
     15          0.144728             1.30172            0.136052            1.57811             0.134187              1.43805           0.122699             1.50066
     16          0.149873             1.1593             0.142413            1.50386             0.140174              1.43366           0.128655             1.38348
     17          0.154388             1.0448             0.148585            1.34771             0.146134              1.38218           0.134227             1.30552
     18          0.15858              0.951463           0.153644            1.20431             0.151692              1.32017           0.139534             1.33216
     19          0.162317             0.863384           0.158621            1.08765             0.157136              1.26841           0.145329             1.21991
     20          0.165775             0.782409           0.162708            0.907478            0.162262              1.18118           0.1497               1.18492
     21          0.168837             0.704201           0.166183            0.706913            0.166979              1.1259            0.155203             1.24319
     22          0.171643             0.614711           0.168599            0.644216            0.171644              1.08283           0.16006              1.23814
     23          0.17396              0.52251            0.171551            0.577451            0.176003              0.998467          0.165521             1.24709
     24          0.175997             0.460627           0.173411            0.447827            0.179965              0.920185          0.170453             1.14559
     25          0.177798             0.367232           0.175283            0.446254            0.183671              0.859967          0.175068             1.04556
     26          0.179058             0.300034           0.17713             0.440831            0.187131              0.813855          0.179166             0.979208
     27          0.180299             0.308223           0.178957            0.38871             0.190453              0.767363          0.183228             0.890618
     28          0.181626             0.254204           0.180369            0.322216            0.193526              0.703348          0.186588             0.786676
     29          0.182417             0.226978           0.181642            0.302149            0.196314              0.637055          0.189783             0.710455
     30          0.183518             0.238313           0.182887            0.297431            0.198835              0.569894          0.192508             0.576729
     31          0.184403             0.213853           0.184121            0.236849            0.201063              0.506476          0.194589             0.573529
     32          0.1853               0.199046           0.18486             0.195684            0.203056              0.451684          0.197287             0.55427
     33          0.186062             0.181203           0.185751            0.176701            0.204827              0.414685          0.199208             0.480653
     34          0.18681              0.169488           0.186333            0.164444            0.206511              0.375408          0.201293             0.372316
     35          0.187474             0.155874           0.187122            0.199806            0.207956              0.336837          0.202311             0.337379
     36          0.188109             0.126262           0.187998            0.19449             0.209318              0.327018          0.204104             0.430418
     37          0.188526             0.123279           0.188742            0.155495          nan                   nan               nan                  nan
     38          0.189136             0.12957            0.189294            0.141719          nan                   nan               nan                  nan
     39          0.189606             0.119102           0.189923            0.135156          nan                   nan               nan                  nan
     40          0.190129             0.110587           0.19042             0.129028          nan                   nan               nan                  nan
     41          0.190528             0.106248           0.190999            0.115089          nan                   nan               nan                  nan
     42          0.191014             0.105001           0.191379            0.0856387         nan                   nan               nan                  nan
     43          0.191403             0.0926894          0.191712            0.0387788         nan                   nan               nan                  nan
     44          0.191786             0.099957           0.191702            0.113028          nan                   nan               nan                  nan
     45          0.192236             0.120024           0.192654            0.16363           nan                   nan               nan                  nan
     46          0.192787             0.102777           0.193066            0.0842828         nan                   nan               nan                  nan
     47          0.193092             0.0900319          0.193357            0.105489          nan                   nan               nan                  nan
     48          0.193537             0.0949131          0.193945            0.055375          nan                   nan               nan                  nan
     49          0.193883             0.089598           0.193818           -0.0281485         nan                   nan               nan                  nan
     50          0.194283             0.0998486          0.19371             0.0101421         nan                   nan               nan                  nan
     51          0.194715             0.0908996          0.193902            0.0535852         nan                   nan               nan                  nan
     52          0.195041             0.0946419          0.194157            0.0493548         nan                   nan               nan                  nan
     53          0.195504             0.0986011          0.194314           -0.0129082         nan                   nan               nan                  nan
     54          0.195863             0.0909539          0.194049            0.0464803         nan                   nan               nan                  nan
     55          0.196262             0.0976249          0.194701            0.143834          nan                   nan               nan                  nan
     56          0.196676             0.09513            0.195248            0.0823846         nan                   nan               nan                  nan
     57          0.197054             0.0909539          0.195388            0.0465345         nan                   nan               nan                  nan
     58          0.197434             0.0866692          0.195636            0.0863438         nan                   nan               nan                  nan
     59          0.197777             0.0917674          0.196107            0.0802151         nan                   nan               nan                  nan
     60          0.198199             0.0919301          0.196304            0.0794016         nan                   nan               nan                  nan
     61          0.198543             0.0835235          0.196769            0.0638901         nan                   nan               nan                  nan
     62          0.198895             0.0874285          0.196837            0.0327586         nan                   nan               nan                  nan
     63          0.199271             0.0976791          0.197042            0.0561343         nan                   nan               nan                  nan
     64          0.199709             0.0881336          0.197304            0.0933402         nan                   nan               nan                  nan
     65          0.200006             0.0810829          0.19782             0.0770694         nan                   nan               nan                  nan
     66          0.200385             0.10012            0.197947            0.0433346         nan                   nan               nan                  nan
     67          0.20084              0.0925809          0.198181            0.0919301         nan                   nan               nan                  nan
     68          0.201156             0.0909539          0.198713            0.0834693         nan                   nan               nan                  nan
     69          0.201598             0.0973537          0.198876            0.0969198         nan                   nan               nan                  nan
     70          0.201967             0.0875912          0.19952             0.112811          nan                   nan               nan                  nan
     71          0.202328             0.0865607          0.199816            0.0710492         nan                   nan               nan                  nan