  Frame    r_f (m) (Cam 1)    v_f (m/s) (Cam 1)    r_p (m) (Cam 1)    v_p (m/s) (Cam 1)    r_f (m) (Cam 2)    v_f (m/s) (Cam 2)    r_p (m) (Cam 2)    v_p (m/s) (Cam 2)
      0          0.0625123          0.900081             0.0622434          0                    0.0614394           0.127835            0.0612202          0
      1          0.0662626          1.016                0.0622434          0.450688             0.0619721           0.474424            0.0612202          0.000910809
      2          0.070979           1.16063              0.0659991          1.20564              0.065393            0.894897            0.0612278          0.336249
      3          0.0759346          1.38167              0.0722904          1.66456              0.0694295           0.990264            0.0640223          0.915631
      4          0.0824929          1.69919              0.0798704          1.95028              0.0736452           1.07524             0.0688581          1.22772
      5          0.0900945          1.9623               0.0885427          2.14216              0.0783898           1.20414             0.0742533          1.39498
      6          0.0988454          2.19798              0.0977218          2.2565               0.0836797           1.41352             0.0804829          1.64096
      7          0.108411           2.30626              0.107347           2.31455              0.0901692           1.64599             0.0879279          1.84369
      8          0.118064           2.2434               0.11701            2.23915              0.0973963           1.80576             0.095847           1.93874
      9          0.127106           2.06107              0.126006           2.05107              0.105217            1.94099             0.104084           1.99939
     10          0.13524            1.8376               0.134102           1.84624              0.113571            2.05575             0.112509           2.05977
     11          0.142419           1.63524              0.141392           1.64929              0.122348            2.0864              0.121249           2.08586
     12          0.148867           1.41182              0.147846           1.40763              0.130958            2.0191              0.129891           2.025
     13          0.154184           1.17529              0.153122           1.17602              0.139174            1.92909             0.138124           1.94136
     14          0.158661           0.986077             0.157646           0.986992             0.147034            1.83223             0.146069           1.82885
     15          0.162402           0.807655             0.161347           0.808814             0.154443            1.69834             0.153364           1.69598
     16          0.165391           0.646538             0.164386           0.64821              0.161186            1.5442              0.160202           1.56091
     17          0.16779            0.535121             0.166749           0.53155              0.167311            1.38984             0.166372           1.3945
     18          0.169851           0.444534             0.168816           0.453719             0.172768            1.24084             0.171823           1.24352
     19          0.171494           0.364561             0.17053            0.369398             0.177652            1.08686             0.176734           1.08997
     20          0.172889           0.304342             0.171894           0.312004             0.181826            0.942152            0.180906           0.93524
     21          0.17403            0.242117             0.17313            0.240478             0.185503            0.806977            0.184528           0.809656
     22          0.174906           0.186038             0.173898           0.17544              0.18855             0.682196            0.187653           0.687661
     23          0.175581           0.132782             0.174592           0.132187             0.191188            0.579275            0.190259           0.577882
     24          0.176013           0.0886059            0.175              0.0898591            0.193378            0.481175            0.192469           0.480425
     25          0.176319           0.0502823            0.175341           0.0517593            0.195198            0.396202            0.194262           0.392987
     26          0.176432           0.0108158            0.175431           0.00526029           0.196679            0.306782            0.195744           0.30855
     27          0.176409           0.00993721           0.175384           0.0107191            0.197754            0.231345            0.196833           0.235524
     28          0.176515           0.0114775            0.17552            0.00779119           0.198607            0.172947            0.197706           0.171018
     29          0.176505          -0.00483077           0.175449          -0.00689793           0.199195            0.121298            0.198259           0.118887
     30          0.176474           0.00541578           0.175463           0.00764231           0.199618            0.0799369           0.198697           0.0795083
     31          0.17655            0.000746201          0.175513           0.00496254           0.199861            0.0457548           0.198921           0.046612
     32          0.176481          -0.0170136            0.175504          -0.010868             0.199999            0.0242704           0.199085           0.0266813
     33          0.176408          -0.00659793           0.175422          -0.00258052           0.200064            0.0137157           0.199143           0.0110369
     34          0.176426           0.000517791          0.175483          -0.00923032           0.200114            0.00830443          0.199177           0.00150016
     35          0.176412          -6.81287e-05          0.175346          -0.019205             0.200133            0.00498266          0.199156           0.00857232
     36          0.176425           0.013461             0.175323           0.0126059            0.200155            0.00867947          0.199249           0.0138764
     37          0.176525           0.0281069            0.175451           0.0268128            0.200205            0.00717932          0.199272           0.00610778
     38          0.176659           0.00955137           0.175546           0.00790008           0.200215            0.00123227          0.1993             0.00176804
     39          0.176604          -0.0038305            0.175516           0.000993721          0.200215            0.00412543          0.199286           0.00525055
     40          0.176627           0.00621834           0.175554           0.00650887           0.200249            0.0105011           0.199343           0.0128585
     41          0.176656           0.00422847           0.175571           0.00049686           0.200303            0.0109297           0.199393           0.0116262
     42          0.176663           0.00353202           0.175559           0.00695605           0.20034             0.00798297          0.19944            0.00573274
     43          0.176685           0.0146255            0.175629           0.015353             0.200369            0.0101261           0.199441           0.00685786
     44          0.176784           0.00965086           0.175687           0.00849631           0.200425            0.0101796           0.199498           0.0110369
     45          0.176766           0.0053229            0.175699           0.00809883           0.200454            0.00760793          0.199533           0.00760793
     46          0.176829           0.0107453            0.175754           0.0104838            0.200488            0.0115191           0.199561           0.0115726
     47          0.176855           0.00934134           0.175787           0.0133159            0.20055             0.0188055           0.19963            0.0158052
     48          0.176907           0.01587              0.175865           0.0169926            0.200645            0.0178947           0.199693           0.0146801
     49          0.176988           0.0157391            0.175928           0.0113284            0.200699            0.0151623           0.199752           0.0161267
     50          0.177038           0.00767034           0.175959           0.00139121           0.200771            0.0173054           0.199827           0.0178411
     51          0.177052           0.0100611            0.17594            0.00909255           0.200844            0.0192877           0.199901           0.0195556
     52          0.177122           0.0203214            0.176035           0.0220975            0.200932            0.0195556           0.19999            0.0192341
     53          0.177221           0.0189766            0.176124           0.0247978            0.201007            0.020895            0.200061           0.0211629
     54          0.17728            0.0142947            0.176242           0.0186451            0.201106            0.0206271           0.200166           0.0204128
     55          0.17734            0.0203712            0.176279           0.0163667            0.201179            0.0202521           0.200231           0.0190734
     56          0.17745            0.0199728            0.176378           0.0177695            0.201275            0.0219666           0.200325           0.0223416
     57          0.177506           0.0179307            0.176428           0.0210926            0.201362            0.0223952           0.200417           0.0231988
     58          0.177599           0.020172             0.176554           0.0274602            0.201462            0.0251812           0.200519           0.0258241
     59          0.177675           0.0233099            0.176656           0.0264653            0.201571            0.0262527           0.200632           0.025717
     60          0.177793           0.0320035            0.176775           0.026316             0.20168             0.0207343           0.200733           0.0185376
     61          0.177941           0.0301259            0.176876           0.0281606            0.201744            0.0259313           0.200787           0.0256634
     62          0.178044           0.0242293            0.177009           0.0257846            0.201896            0.0320926           0.200947           0.0301103
     63          0.178143           0.0257818            0.177091           0.0220149            0.202012            0.0270564           0.201038           0.0268957
     64          0.178259           0.00938175           0.177193           0.00951321           0.202122            0.0280208           0.201171           0.0264135
     65          0.178221          -0.00723087           0.17717           -0.00622592           0.202245            0.0264135           0.201258           0.0265206
     66          0.178199           0.00269287           0.177141           0.000547881          0.202342            0.0285565           0.201392           0.0350929
     67          0.178244           0.0328047            0.177174           0.0314285            0.202483            0.0295745           0.20155            0.0296281
     68          0.178472           0.0578755            0.177403           0.0544708            0.202588            0.0288244           0.201639           0.0243775
     69          0.178726           0.0417404            0.177628           0.0359034            0.202723            0.0312354           0.201754           0.0241096
     70          0.17882            0.0235164            0.177702           0.0250836            0.202849            0.0318247           0.20184            0.0274314
     71          0.178922           0.0292582            0.177837           0.0327134            0.202989            0.0363788           0.201982           0.0353608
     72          0.179064           0.0297076            0.177974           0.0273776            0.203152            0.0297352           0.202134           0.0319855
     73          0.17917            0.0344072            0.178066           0.0304694            0.203236            0.0281815           0.202249           0.0338607
     74          0.179351           0.0342726            0.178228           0.033262             0.203387            0.0317176           0.202417           0.0325212
     75          0.179455           0.0271442            0.178343           0.0287648            0.203501            0.0316104           0.20252            0.0332713
     76          0.179577           0.0255446            0.178468           0.0212423            0.20365             0.0355216           0.202694           0.0381468
     77          0.179668           0.0224952            0.17852            0.0219686            0.203797            0.0351465           0.202838           0.0345036
     78          0.179764           0.0292938            0.178651           0.0290585          nan                 nan                 nan                nan
     79          0.179912           0.0308434            0.178762           0.0277104          nan                 nan                 nan                nan
     80          0.180021           0.0271942            0.178882           0.0288588          nan                 nan                 nan                nan
     81          0.180139           0.0343248            0.179002           0.0355992          nan                 nan                 nan                nan
     82          0.180307           0.0272348            0.179179           0.0286092          nan                 nan                 nan                nan
     83          0.180366           0.0204705            0.179241           0.0185735          nan                 nan                 nan                nan
     84          0.180478           0.0305947            0.179334           0.0278344          nan                 nan                 nan                nan
     85          0.180621           0.0364238            0.179473           0.0382957          nan                 nan                 nan                nan
     86          0.180782           0.033925             0.179653           0.0332439          nan                 nan                 nan                nan
     87          0.180903           0.0369817            0.17975            0.031168           nan                 nan                 nan                nan
     88          0.18109            0.0412912            0.179912           0.0363913          nan                 nan                 nan                nan
     89          0.181248           0.0277112            0.180053           0.0315816          nan                 nan                 nan                nan
     90          0.181321           0.0415835            0.180176           0.0430381          nan                 nan                 nan                nan
     91          0.181594           0.0335667            0.180412           0.0316316          nan                 nan                 nan                nan
     92          0.1816             0.0220298            0.180439           0.0227339          nan                 nan                 nan                nan
     93          0.181778           0.0420733            0.180601           0.0376709          nan                 nan                 nan                nan
     94          0.181951           0.0333541            0.180753           0.0342757          nan                 nan                 nan                nan
     95          0.182056           0.0286329            0.180887           0.0354283          nan                 nan                 nan                nan
     96          0.18219            0.034208             0.181048           0.0354283          nan                 nan                 nan                nan
     97          0.182341           0.0208457            0.181182           0.0187767          nan                 nan                 nan                nan
     98          0.182363           0.0329139            0.181205           0.0297658          nan                 nan                 nan                nan
     99          0.182615           0.0455605            0.18143            0.0398361          nan                 nan                 nan                nan
    100          0.182743           0.039681             0.181537           0.0372952          nan                 nan                 nan                nan
    101          0.182946           0.0440869            0.181741           0.0457563          nan                 nan                 nan                nan
    102          0.18311            0.0366131            0.181918           0.0355133          nan                 nan                 nan                nan
    103          0.183251           0.0333944            0.182037           0.0314703          nan                 nan                 nan                nan
    104          0.183389           0.0323319            0.18218            0.0341578          nan                 nan                 nan                nan
    105          0.18352            0.0370195            0.182321           0.0425968          nan                 nan                 nan                nan
    106          0.183697           0.0402171            0.182535           0.0407884          nan                 nan                 nan                nan
    107          0.183855           0.0402324            0.182661           0.0358591          nan                 nan                 nan                nan
    108          0.184032           0.0409495            0.182834           0.0342177          nan                 nan                 nan                nan
    109          0.184197           0.0302873            0.182946           0.0319862          nan                 nan                 nan                nan
    110          0.184285           0.0321138            0.183101           0.0354061          nan                 nan                 nan                nan
    111          0.184464           0.0356427            0.183242           0.0295255          nan                 nan                 nan                nan
    112          0.184582           0.0370352            0.183347           0.0357394          nan                 nan                 nan                nan
    113          0.184773           0.0389702            0.183539           0.0366573          nan                 nan                 nan                nan
    114          0.184907           0.0339776            0.183652           0.0371104          nan                 nan                 nan                nan
    115          0.185056           0.0389493            0.183849           0.0418276          nan                 nan                 nan                nan
    116          0.185231           0.0372446            0.184001           0.0322262          nan                 nan                 nan                nan
    117          0.185366           0.040296             0.184117           0.0386676          nan                 nan                 nan                nan
    118          0.185567           0.0444206            0.184323           0.043699           nan                 nan                 nan                nan
    119          0.185736           0.0321212            0.184481           0.0342311          nan                 nan                 nan                nan
    120          0.185835           0.0294621            0.184608           0.0287972          nan                 nan                 nan                nan
