  Frame    r_f (m) (Cam 1)    v_f (m/s) (Cam 1)    r_p (m) (Cam 1)    v_p (m/s) (Cam 1)    r_f (m) (Cam 2)    v_f (m/s) (Cam 2)    r_p (m) (Cam 2)    v_p (m/s) (Cam 2)
      0          0.0624398           0.133268            0.0619485          0                    0.0617499          0.290556             0.0609525          0
      1          0.0629951           0.175826            0.0619485          0                    0.0629606          0.342518             0.0609525          0
      2          0.063905            0.242734            0.0619485          0                    0.0646043          0.395293             0.0609525          0
      3          0.0650179           0.272623            0.0619485          0                    0.0662547          0.388527             0.0609525          0.00330177
      4          0.0661769           0.269717            0.0619485          0                    0.067842           0.368662             0.06098            0.0817324
      5          0.0672655           0.235056            0.0619485          0                    0.0693269          0.367471             0.0616336          0.203249
      6          0.0681357           0.235714            0.0619485          0.0121202            0.0709042          0.360381             0.0626737          0.31264
      7          0.0692298           0.270978            0.0620495          0.107053             0.0723301          0.343222             0.0642389          0.440814
      8          0.0703938           0.342767            0.0628406          0.412527             0.0737644          0.38712              0.0663472          0.513291
      9          0.0720862           0.494023            0.0654872          0.650325             0.0755561          0.474968             0.0685163          0.618785
     10          0.0745107           0.654877            0.06826            0.703193             0.0777225          0.545767             0.0715037          0.689097
     11          0.0775435           0.710433            0.0713472          0.79489              0.0801041          0.595564             0.0742588          0.635998
     12          0.080431            0.665352            0.0748841          0.829716             0.0826855          0.615537             0.0768037          0.615646
     13          0.0830881           0.639686            0.0782615          0.797084             0.0852336          0.592263             0.0793892          0.624089
     14          0.0857617           0.653506            0.0815264          0.800868             0.0876211          0.572019             0.0820044          0.652994
     15          0.088534            0.673962            0.0849354          0.730505             0.0900004          0.562114             0.0848308          0.651532
     16          0.091378            0.678295            0.087614           0.664913             0.0923053          0.565469             0.0874339          0.617107
     17          0.0941864           0.663871            0.0904763          0.731712             0.0947127          0.567635             0.0899733          0.644062
     18          0.0969103           0.636505            0.0937116          0.77054              0.0970356          0.569475             0.0928011          0.674157
     19          0.0994906           0.627785            0.0968975          0.770376             0.0994583          0.596322             0.0955913          0.674645
     20          0.102142            0.61188             0.100131           0.732425             0.102005           0.609583             0.0984231          0.657215
     21          0.10459             0.552486            0.103001           0.677801             0.104538           0.581545             0.101068           0.624739
     22          0.106746            0.56126             0.10578            0.674346             0.106851           0.535537             0.103629           0.590639
     23          0.109267            0.604257            0.108621           0.66239              0.109001           0.50961              0.10599            0.581545
     24          0.111781            0.582704            0.1113             0.63974              0.111098           0.518974             0.108475           0.59118
     25          0.114123            0.523583            0.113952           0.593508             0.113326           0.533209             0.110917           0.577161
     26          0.116145            0.483548            0.116246           0.561699             0.115541           0.51302              0.113285           0.526281
     27          0.118152            0.448559            0.118633           0.535649             0.117601           0.494941             0.115302           0.504738
     28          0.119883            0.425415            0.120709           0.504005             0.119666           0.480706             0.117491           0.511559
     29          0.121697            0.393935            0.122833           0.458869             0.121607           0.452614             0.119565           0.49532
     30          0.123165            0.347703            0.124533           0.418285             0.123438           0.432803             0.121619           0.476538
     31          0.124595            0.317923            0.126318           0.40112              0.125213           0.415266             0.123536           0.435726
     32          0.125815            0.304048            0.127876           0.3556               0.126898           0.409853             0.12525            0.418513
     33          0.127129            0.279479            0.129282           0.338105             0.128629           0.390692             0.127024           0.403412
     34          0.128144            0.234453            0.130693           0.322695             0.130154           0.367255             0.128612           0.374833
     35          0.129082            0.1795              0.131971           0.277669             0.131689           0.339758             0.130148           0.353127
     36          0.12964             0.143085            0.133007           0.246847             0.132985           0.322437             0.131555           0.343493
     37          0.130275            0.168148            0.134028           0.259735             0.134376           0.325577             0.13301            0.348581
     38          0.131041            0.183613            0.135172           0.237853             0.135698           0.291368             0.134459           0.313019
     39          0.131805            0.150434            0.13601            0.188604             0.136804           0.276808             0.135619           0.283953
     40          0.132294            0.103543            0.136743           0.162828             0.138005           0.27946              0.136826           0.290177
     41          0.132668            0.105956            0.137367           0.16546              0.139133           0.258404             0.138037           0.266524
     42          0.133177            0.114402            0.138122           0.147801             0.140159           0.249419             0.139047           0.248661
     43          0.133621            0.102282            0.138599           0.114566             0.141212           0.23697              0.140109           0.239243
     44          0.13403             0.0874193           0.139077           0.144017             0.142133           0.19632              0.14104            0.18793
     45          0.13435             0.07497             0.139799           0.115828             0.142848           0.171313             0.141675           0.150528
     46          0.134654            0.0687728           0.140042           0.0530878            0.143561           0.144683             0.142295           0.155562
     47          0.134923            0.0666339           0.140241           0.0607657            0.144053           0.124439             0.142971           0.156591
     48          0.13521             0.0494681           0.140549           0.0676211            0.144598           0.139216             0.1436             0.148147
     49          0.135335            0.0462873           0.140805           0.060327             0.145214           0.124168             0.144206           0.115237
     50          0.135595            0.0461776           0.141051           0.0914228            0.145633           0.0974835            0.14456            0.0945065
     51          0.13572             0.021608            0.141566           0.092739             0.146026           0.0961845            0.144993           0.0899598
     52          0.135775            0.0251728           0.141824           0.0255567            0.146434           0.0805416            0.14531            0.0766986
     53          0.13593             0.0341122           0.141779           0.0185368            0.146697           0.0757784            0.145633           0.0735051
     54          0.13606             0.0290666           0.141979           0.0477132            0.147066           0.0801627            0.145922           0.0771857
     55          0.136172            0.0250083           0.142177          -0.20928              0.147365           0.0688501            0.146276           0.0723684
     56          0.136268            0.0334541           0.140235          -0.280246             0.147639           0.0950478            0.146525           0.0696079
     57          0.136451            0.0293409           0.139842          -0.0350445            0.148157           0.102193             0.146856           0.0694996
     58          0.136513            0.0180433           0.139943           0.0381705            0.148491           0.0669557            0.147104           0.0556971
     59          0.136601            0.0314249           0.14016            0.0449162            0.148715           0.0487147            0.14732            0.0382681
     60          0.136775            0.0337831           0.140317           0.0418998            0.148897           0.0382681            0.147423           0.028471
     61          0.136882            0.0269278           0.140509           0.0276956            0.149034           0.0396754            0.147557           0.0461707
     62          0.136999            0.0121202           0.140548           0.0392125            0.149228           0.0463331            0.147808           0.0437891
     63          0.136983            0.00510037          0.140836           0.0191401            0.14942            0.05862              0.147922           0.0470368
     64          0.137041            0.0178239           0.140707          -0.0123396            0.149716           0.0508257            0.1482             0.0589448
     65          0.137132            0.0251728           0.140733           0.0106395            0.149844           0.0423277            0.148413           0.0292829
     66          0.137251            0.0297796           0.140796          -0.0168367            0.150069           0.049689             0.148444           0.0209473
     67          0.13738             0.0338928           0.140593           0.00608754           0.150258           0.0364278            0.148588           0.0375644
     68          0.137534            0.0272568           0.140847          -0.00608754           0.150372           0.0277133            0.148757           0.0365902
     69          0.137607            0.0270923           0.140542          -0.211309             0.150489           0.0466037            0.148893           0.0234913
     70          0.137759            0.0219919           0.139086          -0.18844              0.150761           0.0546146            0.148953           0.0283087
     71          0.137791            0.0185917           0.138971          -0.0131074            0.150944           0.0447634            0.149129           0.0400002
     72          0.137914            0.026489            0.138976           0.00899421           0.151134           0.0429231            0.149286           0.0346957
     73          0.138011            0.0278601           0.139046          -0.00148075           0.151302           0.0381599            0.149418           0.0325306
     74          0.138147            0.0265439           0.138964          -0.000932326          0.151452           0.0381057            0.149557           0.0321517
     75          0.138232            0.025447            0.139039           0.00263245           0.151619           0.0341003            0.149686           0.015697
     76          0.138359            0.0200724           0.138986           0.0052649            0.151736           0.0300407            0.149688           0.0217592
     77          0.1384              0.0144785           0.139083           0.0230888            0.151869           0.0343709            0.149867           0.0389176
     78          0.138479            0.0145333           0.139178           0.0197982            0.152022           0.0379433            0.150012           0.0300949
     79          0.138521            0.0170561           0.139247           0.00871999           0.152186           0.035237             0.150118           0.020406
     80          0.138621            0.0224307           0.139251           0.00340025           0.152316           0.0369149            0.150182           0.0197565
     81          0.138708            0.0267632           0.139276          -0.00279698           0.152493           0.0372938            0.150283           0.0170501
     82          0.138844            0.0261051           0.139228           0.00871999           0.152627           0.0348581            0.150325           0.0192152
     83          0.138925            0.0154656           0.139349           0.0471099            0.152784           0.0298784            0.150443           0.0226794
     84          0.138973            0.00844578          0.13962            0.0219371            0.152876           0.0296618            0.150514           0.0231665
     85          0.138996            0.0164528           0.139531          -0.0100911            0.153031           0.0282545            0.150636           0.0141814
     86          0.13911             0.0185368           0.139536           0.0242953            0.153111           0.0218134            0.150632           0.00930992
     87          0.13915             0.0187014           0.139734           0.0113524            0.153213           0.0369149            0.150713           0.0274426
     88          0.139266            0.0182078           0.139631          -0.00592301           0.153419           0.0392424            0.15086            0.0205143
     89          0.139302            0.0172206           0.139684           0.0283537            0.15354            0.0213262            0.150884           0.00589989
     90          0.13941             0.0205112           0.139867           0.00828125           0.153597           0.0323141            0.15091            0.020406
     91          0.139473            0.0205112           0.139753           0.00323572           0.153809           0.0393507            0.151054           0.0257647
     92          0.139581            0.0179884           0.139894           0.0260503            0.153924           0.0249528            0.151124           0.0129365
     93          0.139623            0.0228694           0.139971          -0.0108589            0.154017           0.028471             0.151162           0.0162924
     94          0.139771            0.027531            0.139804          -0.0068005            0.154162           0.0287417            0.15126            0.0182951
     95          0.139852            0.0161238           0.139914           0.0199079            0.154256           0.0296077            0.151315           0.00952643
     96          0.139906            0.0182626           0.13997            0.0107492            0.154408           0.0376727            0.151339           0.0230583
     97          0.140004            0.0142043           0.140003           0.00159044           0.15457            0.0341003            0.151507           0.0333966
     98          0.140024            0.0064166           0.139983          -0.000877484          0.154693           0.0260894            0.151618           0.0161841
     99          0.140058            0.0166722           0.139996           0.0110782            0.154788           0.0337755            0.151642           0.0188364
    100          0.140163            0.0300538           0.140075           0.0337831            0.154974           0.0256023            0.151775           0.0165089
    101          0.140308            0.0182626           0.140278           0.0155205            0.155001           0.0207308            0.151779           0.00232748
    102          0.140315            0.0138204           0.140205           0.0239114            0.155147           0.0343709            0.151794           0.0147227
    103          0.140423            0.0246792           0.140477           0.0209499            0.155288           0.0262518            0.151902           0.00941818
    104          0.140521            0.0161786           0.140379          -0.0342767            0.155366           0.0246821            0.151873           0.0117998
    105          0.140558            0.0175497           0.140191          -0.0908744            0.155493           0.0279298            0.152              0.0191611
    106          0.140667            0.0228694           0.139622          -0.0789735            0.155598           0.0345333            0.152032           0.00108255
    107          0.140749            0.0180981           0.139533          -0.00981685           0.155781           0.0403791            0.152009           0.0134777
    108          0.140818            0.0156302           0.13954            0.00921358           0.155935           0.0228959            0.152145           0.0076861
    109          0.140879            0.0125041           0.13961            0.00592301           0.155972           0.024195             0.152073           0.0107172
    110          0.140922            0.0188111           0.139589           0.0224307            0.156136           0.0347498            0.152234           0.0208391
    111          0.141036            0.0233082           0.139797           0.0357026            0.156261           0.0287417            0.152247           0.00497973
    112          0.141116            0.0170561           0.139887           0.0105846            0.156376           0.0313398            0.152275           0.0167795
    113          0.141178            0.019524            0.139885           0.0188111            0.156523           0.0326389            0.152387           0.0205684
    114          0.141279            0.0232533           0.140044           0.0177142            0.156648           0.0261977            0.152447           0.00914754
    115          0.141372            0.0209499           0.140033          -0.00345509           0.156741           0.028471             0.152463           0.00936405
    116          0.141454            0.021608            0.140015           0.0204015            0.156885           0.0325847            0.152525           0.0132612
    117          0.141552            0.0228694           0.140203           0.0345509            0.157012           0.0304196            0.152574           0.0153181
    118          0.141644            0.0229243           0.140303           0.011517             0.157139           0.0303114            0.152652           0.0222464
